    1.000      342
    1.015      368
    1.030      370
    1.045      395
    1.060      437
    1.075      587
    1.090      868
    1.105     1142
    1.120     1534
    1.135     1918
    1.150     2242
    1.165     2606
    1.180     2882
    1.195     3324
    1.210     3427
    1.225     3835
    1.240     4026
    1.255     4185
    1.270     4482
    1.285     4563
    1.300     4597
    1.315     4591
    1.330     4421
    1.345     4536
    1.360     4568
    1.375     4552
    1.390     4383
    1.405     4606
    1.420     4462
    1.435     4608
    1.450     4427
    1.465     4442
    1.480     4251
    1.495     4454
    1.510     4581
    1.525     4349
    1.540     4351
    1.555     4310
    1.570     4267
    1.585     4353
    1.600     4345
    1.615     4411
    1.630     4279
    1.645     4442
    1.660     4467
    1.675     4351
    1.690     4361
    1.705     4421
    1.720     4492
    1.735     4439
    1.750     4515
    1.765     4547
    1.780     4416
    1.795     4592
    1.810     4666
    1.825     4793
    1.840     4661
    1.855     4749
    1.870     4725
    1.885     4904
    1.900     4860
    1.915     5028
    1.930     5063
    1.945     5302
    1.960     5229
    1.975     5424
    1.990     5417
    2.005     5703
    2.020     5793
    2.035     5741
    2.050     5898
    2.065     5979
    2.080     6083
    2.095     6318
    2.110     6493
    2.125     6586
    2.140     6902
    2.155     7064
    2.170     7299
    2.185     7332
    2.200     7714
    2.215     7718
    2.230     8050
    2.245     8275
    2.260     8515
    2.275     9069
    2.290     9288
    2.305     9609
    2.320    10205
    2.335    10309
    2.350    11257
    2.365    11702
    2.380    12324
    2.395    12599
    2.410    14399
    2.425    14518
    2.440    15830
    2.455    16771
    2.470    18441
    2.485    19211
    2.500    22027
    2.515    25841
    2.530    29817
    2.545    34784
    2.560    36044
    2.575    34135
    2.590    31580
    2.605    26106
    2.620    18898
    2.635    10661
    2.650     5685
    2.665     3673
    2.680     3089
    2.695     2861
    2.710     2761
    2.725     2728
    2.740     2616
    2.755     2566
    2.770     2476
    2.785     2450
    2.800     2445
    2.815     2467
    2.830     2457
    2.845     2397
    2.860     2368
    2.875     2410
    2.890     2500
    2.905     2349
    2.920     2468
    2.935     2410
    2.950     2373
    2.965     2337
    2.980     2358
    2.995     2313
    3.010     2399
    3.025     2305
    3.040     2326
    3.055     2309
    3.070     2275
    3.085     2284
    3.100     2345
    3.115     2332
    3.130     2338
    3.145     2316
    3.160     2293
    3.175     2295
    3.190     2202
    3.205     2285
    3.220     2272
    3.235     2254
    3.250     2252
    3.265     2198
    3.280     2257
    3.295     2200
    3.310     2198
    3.325     2228
    3.340     2223
    3.355     2232
    3.370     2293
    3.385     2245
    3.400     2127
    3.415     2340
    3.430     2165
    3.445     2243
    3.460     2255
    3.475     2225
    3.490     2108
    3.505     2231
    3.520     2226
    3.535     2112
    3.550     2210
    3.565     2086
    3.580     2103
    3.595     2065
    3.610     2172
    3.625     2246
    3.640     2156
    3.655     2153
    3.670     2150
    3.685     2105
    3.700     2139
    3.715     2087
    3.730     2105
    3.745     2148
    3.760     2126
    3.775     2139
    3.790     2072
    3.805     2129
    3.820     2164
    3.835     2165
    3.850     2032
    3.865     2075
    3.880     2074
    3.895     2109
    3.910     2038
    3.925     2090
    3.940     2086
    3.955     2055
    3.970     2109
    3.985     2171
    4.000     2137
    4.015     2186
    4.030     2194
    4.045     2159
    4.060     2084
    4.075     2078
    4.090     2110
    4.105     2137
    4.120     2096
    4.135     2124
    4.150     2214
    4.165     2155
    4.180     2195
    4.195     2228
    4.210     2240
    4.225     2137
    4.240     2232
    4.255     2163
    4.270     2234
    4.285     2214
    4.300     2254
    4.315     2270
    4.330     2265
    4.345     2315
    4.360     2296
    4.375     2339
    4.390     2443
    4.405     2395
    4.420     2706
    4.435     2726
    4.450     2925
    4.465     2862
    4.480     2787
    4.495     2559
    4.510     2535
    4.525     2392
    4.540     2219
    4.555     2122
    4.570     2154
    4.585     2134
    4.600     2126
    4.615     2193
    4.630     2271
    4.645     2227
    4.660     2310
    4.675     2406
    4.690     2375
    4.705     2385
    4.720     2349
    4.735     2449
    4.750     2528
    4.765     2551
    4.780     2660
    4.795     2687
    4.810     2875
    4.825     2979
    4.840     3121
    4.855     3114
    4.870     3256
    4.885     3452
    4.900     3653
    4.915     3804
    4.930     4181
    4.945     4468
    4.960     4642
    4.975     4910
    4.990     5500
    5.005     5961
    5.020     6514
    5.035     7015
    5.050     7557
    5.065     8427
    5.080     9449
    5.095    10825
    5.110    12913
    5.125    15840
    5.140    18809
    5.155    19934
    5.170    18400
    5.185    16672
    5.200    13500
    5.215     9640
    5.230     5792
    5.245     3896
    5.260     3522
    5.275     3612
    5.290     4070
    5.305     4347
    5.320     4500
    5.335     4345
    5.350     3990
    5.365     3747
    5.380     3160
    5.395     2510
    5.410     2084
    5.425     2143
    5.440     1999
    5.455     2060
    5.470     2068
    5.485     2022
    5.500     1951
    5.515     2009
    5.530     2036
    5.545     2030
    5.560     2076
    5.575     2024
    5.590     1946
    5.605     1984
    5.620     2052
    5.635     2064
    5.650     2017
    5.665     2086
    5.680     2056
    5.695     2113
    5.710     2122
    5.725     2130
    5.740     2176
    5.755     2187
    5.770     2219
    5.785     2247
    5.800     2276
    5.815     2337
    5.830     2437
    5.845     2472
    5.860     2467
    5.875     2620
    5.890     2906
    5.905     3029
    5.920     3035
    5.935     2946
    5.950     2805
    5.965     2619
    5.980     2313
    5.995     2148
    6.010     2079
    6.025     2053
    6.040     2018
    6.055     1953
    6.070     1977
    6.085     1978
    6.100     1982
    6.115     2016
    6.130     2090
    6.145     2029
    6.160     2008
    6.175     1964
    6.190     1927
    6.205     1881
    6.220     1913
    6.235     1915
    6.250     1881
    6.265     1892
    6.280     1852
    6.295     1907
    6.310     1859
    6.325     1844
    6.340     1908
    6.355     1845
    6.370     1902
    6.385     1932
    6.400     1870
    6.415     1794
    6.430     1953
    6.445     1825
    6.460     1928
    6.475     1899
    6.490     1912
    6.505     1837
    6.520     1808
    6.535     1884
    6.550     1902
    6.565     1883
    6.580     1856
    6.595     1884
    6.610     1936
    6.625     1952
    6.640     1953
    6.655     1910
    6.670     1903
    6.685     1923
    6.700     1949
    6.715     1980
    6.730     1995
    6.745     2052
    6.760     2072
    6.775     2042
    6.790     2112
    6.805     2163
    6.820     2157
    6.835     2297
    6.850     2457
    6.865     2458
    6.880     2503
    6.895     2742
    6.910     3035
    6.925     3387
    6.940     3968
    6.955     4020
    6.970     3881
    6.985     3542
    7.000     3237
    7.015     2775
    7.030     2356
    7.045     2051
    7.060     1969
    7.075     1914
    7.090     2014
    7.105     2030
    7.120     2145
    7.135     2146
    7.150     2161
    7.165     2395
    7.180     2442
    7.195     2504
    7.210     2657
    7.225     2871
    7.240     2975
    7.255     3175
    7.270     3484
    7.285     3748
    7.300     4207
    7.315     4612
    7.330     5186
    7.345     5805
    7.360     6709
    7.375     8395
    7.390    10506
    7.405    12919
    7.420    13202
    7.435    13679
    7.450    11784
    7.465     9980
    7.480     7033
    7.495     4234
    7.510     2440
    7.525     2025
    7.540     2021
    7.555     1993
    7.570     1977
    7.585     1954
    7.600     1957
    7.615     2074
    7.630     2225
    7.645     2298
    7.660     2419
    7.675     2603
    7.690     2828
    7.705     3205
    7.720     3752
    7.735     3975
    7.750     4127
    7.765     4022
    7.780     3672
    7.795     3141
    7.810     2502
    7.825     2026
    7.840     1771
    7.855     1618
    7.870     1592
    7.885     1590
    7.900     1604
    7.915     1617
    7.930     1528
    7.945     1611
    7.960     1570
    7.975     1548
    7.990     1612
    8.005     1582
    8.020     1531
    8.035     1538
    8.050     1610
    8.065     1596
    8.080     1555
    8.095     1541
    8.110     1577
    8.125     1537
    8.140     1531
    8.155     1537
    8.170     1555
    8.185     1554
    8.200     1558
    8.215     1446
    8.230     1517
    8.245     1481
    8.260     1513
    8.275     1524
    8.290     1488
    8.305     1481
    8.320     1479
    8.335     1538
    8.350     1528
    8.365     1488
    8.380     1585
    8.395     1511
    8.410     1562
    8.425     1574
    8.440     1725
    8.455     1609
    8.470     1655
    8.485     1715
    8.500     1681
    8.515     1697
    8.530     1873
    8.545     1877
    8.560     1921
    8.575     2074
    8.590     2137
    8.605     2323
    8.620     2613
    8.635     3032
    8.650     3541
    8.665     3602
    8.680     3782
    8.695     3639
    8.710     3138
    8.725     2663
    8.740     2085
    8.755     1653
    8.770     1556
    8.785     1465
    8.800     1427
    8.815     1391
    8.830     1463
    8.845     1476
    8.860     1515
    8.875     1452
    8.890     1434
    8.905     1463
    8.920     1558
    8.935     1521
    8.950     1552
    8.965     1519
    8.980     1567
    8.995     1475
    9.010     1489
    9.025     1493
    9.040     1521
    9.055     1491
    9.070     1457
    9.085     1411
    9.100     1410
    9.115     1417
    9.130     1454
    9.145     1462
    9.160     1475
    9.175     1520
    9.190     1504
    9.205     1492
    9.220     1568
    9.235     1593
    9.250     1606
    9.265     1614
    9.280     1635
    9.295     1739
    9.310     1858
    9.325     1778
    9.340     1785
    9.355     1732
    9.370     1647
    9.385     1545
    9.400     1501
    9.415     1431
    9.430     1408
    9.445     1500
    9.460     1426
    9.475     1440
    9.490     1434
    9.505     1370
    9.520     1376
    9.535     1415
    9.550     1427
    9.565     1409
    9.580     1358
    9.595     1389
    9.610     1365
    9.625     1351
    9.640     1349
    9.655     1369
    9.670     1384
    9.685     1386
    9.700     1364
    9.715     1450
    9.730     1391
    9.745     1381
    9.760     1332
    9.775     1403
    9.790     1380
    9.805     1372
    9.820     1342
    9.835     1318
    9.850     1404
    9.865     1410
    9.880     1400
    9.895     1367
    9.910     1380
    9.925     1400
    9.940     1361
    9.955     1432
    9.970     1431
    9.985     1424
   10.000     1387
   10.015     1389
   10.030     1374
   10.045     1390
   10.060     1423
   10.075     1428
   10.090     1430
   10.105     1395
   10.120     1414
   10.135     1468
   10.150     1546
   10.165     1492
   10.180     1554
   10.195     1612
   10.210     1691
   10.225     1719
   10.240     1881
   10.255     1972
   10.270     2189
   10.285     2416
   10.300     2698
   10.315     3213
   10.330     3625
   10.345     3887
   10.360     3967
   10.375     3980
   10.390     4052
   10.405     3935
   10.420     3836
   10.435     3421
   10.450     3344
   10.465     3031
   10.480     2615
   10.495     2009
   10.510     1642
   10.525     1377
   10.540     1333
   10.555     1422
   10.570     1415
   10.585     1365
   10.600     1385
   10.615     1358
   10.630     1432
   10.645     1442
   10.660     1432
   10.675     1408
   10.690     1445
   10.705     1375
   10.720     1317
   10.735     1415
   10.750     1418
   10.765     1394
   10.780     1387
   10.795     1423
   10.810     1384
   10.825     1357
   10.840     1381
   10.855     1335
   10.870     1380
   10.885     1342
   10.900     1323
   10.915     1355
   10.930     1364
   10.945     1358
   10.960     1376
   10.975     1343
   10.990     1434
   11.005     1430
   11.020     1441
   11.035     1415
   11.050     1468
   11.065     1422
   11.080     1359
   11.095     1365
   11.110     1389
   11.125     1380
   11.140     1361
   11.155     1414
   11.170     1422
   11.185     1382
   11.200     1363
   11.215     1470
   11.230     1443
   11.245     1462
   11.260     1459
   11.275     1483
   11.290     1435
   11.305     1429
   11.320     1422
   11.335     1417
   11.350     1339
   11.365     1374
   11.380     1305
   11.395     1421
   11.410     1455
   11.425     1451
   11.440     1372
   11.455     1443
   11.470     1392
   11.485     1455
   11.500     1455
   11.515     1449
   11.530     1348
   11.545     1396
   11.560     1454
   11.575     1475
   11.590     1456
   11.605     1422
   11.620     1395
   11.635     1347
   11.650     1391
   11.665     1386
   11.680     1332
   11.695     1387
   11.710     1432
   11.725     1395
   11.740     1449
   11.755     1361
   11.770     1440
   11.785     1474
   11.800     1454
   11.815     1486
   11.830     1473
   11.845     1589
   11.860     1704
   11.875     1736
   11.890     1673
   11.905     1649
   11.920     1556
   11.935     1424
   11.950     1388
   11.965     1421
   11.980     1370
   11.995     1404
   12.010     1326
   12.025     1371
   12.040     1364
   12.055     1407
   12.070     1353
   12.085     1345
   12.100     1329
   12.115     1335
   12.130     1384
   12.145     1357
   12.160     1356
   12.175     1363
   12.190     1396
   12.205     1372
   12.220     1304
   12.235     1276
   12.250     1369
   12.265     1321
   12.280     1348
   12.295     1395
   12.310     1331
   12.325     1360
   12.340     1406
   12.355     1375
   12.370     1352
   12.385     1381
   12.400     1387
   12.415     1437
   12.430     1462
   12.445     1533
   12.460     1569
   12.475     1536
   12.490     1551
   12.505     1488
   12.520     1539
   12.535     1456
   12.550     1455
   12.565     1412
   12.580     1340
   12.595     1317
   12.610     1315
   12.625     1348
   12.640     1409
   12.655     1478
   12.670     1529
   12.685     1501
   12.700     1618
   12.715     1556
   12.730     1546
   12.745     1549
   12.760     1357
   12.775     1342
   12.790     1335
   12.805     1351
   12.820     1311
   12.835     1279
   12.850     1316
   12.865     1369
   12.880     1479
   12.895     1421
   12.910     1442
   12.925     1543
   12.940     1547
   12.955     1565
   12.970     1519
   12.985     1489
   13.000     1494
   13.015     1393
   13.030     1356
   13.045     1279
   13.060     1303
   13.075     1292
   13.090     1243
   13.105     1256
   13.120     1265
   13.135     1247
   13.150     1255
   13.165     1298
   13.180     1316
   13.195     1358
   13.210     1326
   13.225     1317
   13.240     1293
   13.255     1292
   13.270     1249
   13.285     1299
   13.300     1258
   13.315     1251
   13.330     1248
   13.345     1262
   13.360     1260
   13.375     1274
   13.390     1221
   13.405     1267
   13.420     1319
   13.435     1339
   13.450     1283
   13.465     1377
   13.480     1316
   13.495     1391
   13.510     1304
   13.525     1297
   13.540     1220
   13.555     1245
   13.570     1311
   13.585     1238
   13.600     1228
   13.615     1199
   13.630     1211
   13.645     1263
   13.660     1254
   13.675     1254
   13.690     1248
   13.705     1242
   13.720     1242
   13.735     1231
   13.750     1230
   13.765     1253
   13.780     1254
   13.795     1266
   13.810     1229
   13.825     1230
   13.840     1267
   13.855     1305
   13.870     1303
   13.885     1323
   13.900     1355
   13.915     1385
   13.930     1573
   13.945     1616
   13.960     1654
   13.975     1758
   13.990     1666
   14.005     1532
   14.020     1423
   14.035     1423
   14.050     1258
   14.065     1305
   14.080     1305
   14.095     1235
   14.110     1171
   14.125     1165
   14.140     1223
   14.155     1248
   14.170     1222
   14.185     1263
   14.200     1262
   14.215     1207
   14.230     1220
   14.245     1233
   14.260     1242
   14.275     1186
   14.290     1192
   14.305     1248
   14.320     1214
   14.335     1250
   14.350     1211
   14.365     1213
   14.380     1252
   14.395     1260
   14.410     1331
   14.425     1417
   14.440     1437
   14.455     1335
   14.470     1349
   14.485     1354
   14.500     1367
   14.515     1266
   14.530     1226
   14.545     1183
   14.560     1217
   14.575     1308
   14.590     1218
   14.605     1196
   14.620     1183
   14.635     1171
   14.650     1226
   14.665     1213
   14.680     1200
   14.695     1221
   14.710     1255
   14.725     1240
   14.740     1162
   14.755     1190
   14.770     1182
   14.785     1189
   14.800     1203
   14.815     1192
   14.830     1212
   14.845     1163
   14.860     1180
   14.875     1231
   14.890     1261
   14.905     1288
   14.920     1245
   14.935     1213
   14.950     1195
   14.965     1204
   14.980     1161
   14.995     1179
   15.010     1295
   15.025     1194
   15.040     1216
   15.055     1217
   15.070     1219
   15.085     1172
   15.100     1116
   15.115     1129
   15.130     1160
   15.145     1205
   15.160     1245
   15.175     1210
   15.190     1227
   15.205     1231
   15.220     1221
   15.235     1244
   15.250     1207
   15.265     1213
   15.280     1147
   15.295     1174
   15.310     1170
   15.325     1171
   15.340     1189
   15.355     1193
   15.370     1200
   15.385     1234
   15.400     1222
   15.415     1216
   15.430     1247
   15.445     1257
   15.460     1224
   15.475     1365
   15.490     1366
   15.505     1420
   15.520     1445
   15.535     1636
   15.550     1667
   15.565     1678
   15.580     1697
   15.595     1650
   15.610     1485
   15.625     1355
   15.640     1270
   15.655     1187
   15.670     1204
   15.685     1236
   15.700     1183
   15.715     1174
   15.730     1179
   15.745     1175
   15.760     1184
   15.775     1189
   15.790     1191
   15.805     1161
   15.820     1178
   15.835     1192
   15.850     1172
   15.865     1201
   15.880     1172
   15.895     1223
   15.910     1235
   15.925     1246
   15.940     1216
   15.955     1253
   15.970     1292
   15.985     1419
   16.000     1428
   16.015     1396
   16.030     1360
   16.045     1353
   16.060     1305
   16.075     1361
   16.090     1260
   16.105     1242
   16.120     1213
   16.135     1232
   16.150     1271
   16.165     1334
   16.180     1320
   16.195     1344
   16.210     1383
   16.225     1371
   16.240     1325
   16.255     1274
   16.270     1241
   16.285     1201
   16.300     1250
   16.315     1223
   16.330     1219
   16.345     1224
   16.360     1206
   16.375     1194
   16.390     1150
   16.405     1152
   16.420     1159
   16.435     1184
   16.450     1197
   16.465     1169
   16.480     1187
   16.495     1178
   16.510     1261
   16.525     1200
   16.540     1245
   16.555     1147
   16.570     1185
   16.585     1192
   16.600     1257
   16.615     1204
   16.630     1206
   16.645     1233
   16.660     1233
   16.675     1208
   16.690     1269
   16.705     1238
   16.720     1234
   16.735     1193
   16.750     1138
   16.765     1253
   16.780     1234
   16.795     1251
   16.810     1281
   16.825     1216
   16.840     1237
   16.855     1206
   16.870     1253
   16.885     1192
   16.900     1257
   16.915     1266
   16.930     1204
   16.945     1168
   16.960     1166
   16.975     1140
   16.990     1184
   17.005     1188
   17.020     1222
   17.035     1253
   17.050     1201
   17.065     1208
   17.080     1182
   17.095     1199
   17.110     1265
   17.125     1213
   17.140     1184
   17.155     1225
   17.170     1260
   17.185     1334
   17.200     1381
   17.215     1434
   17.230     1515
   17.245     1477
   17.260     1333
   17.275     1342
   17.290     1248
   17.305     1178
   17.320     1227
   17.335     1172
   17.350     1182
   17.365     1175
   17.380     1138
   17.395     1195
   17.410     1204
   17.425     1213
   17.440     1213
   17.455     1183
   17.470     1116
   17.485     1214
   17.500     1187
   17.515     1184
   17.530     1177
   17.545     1175
   17.560     1106
   17.575     1155
   17.590     1183
   17.605     1169
   17.620     1143
   17.635     1168
   17.650     1113
   17.665     1117
   17.680     1148
   17.695     1212
   17.710     1095
   17.725     1100
   17.740     1119
   17.755     1126
   17.770     1141
   17.785     1174
   17.800     1176
   17.815     1199
   17.830     1163
   17.845     1181
   17.860     1104
   17.875     1181
   17.890     1191
   17.905     1220
   17.920     1175
   17.935     1133
   17.950     1164
   17.965     1213
   17.980     1268
   17.995     1360
   18.010     1311
   18.025     1300
   18.040     1254
   18.055     1231
   18.070     1176
   18.085     1200
   18.100     1197
   18.115     1088
   18.130     1122
   18.145     1089
   18.160     1150
   18.175     1183
   18.190     1185
   18.205     1219
   18.220     1184
   18.235     1178
   18.250     1152
   18.265     1135
   18.280     1159
   18.295     1158
   18.310     1139
   18.325     1176
   18.340     1118
   18.355     1125
   18.370     1134
   18.385     1126
   18.400     1120
   18.415     1103
   18.430     1170
   18.445     1174
   18.460     1177
   18.475     1126
   18.490     1204
   18.505     1160
   18.520     1183
   18.535     1113
   18.550     1162
   18.565     1106
   18.580     1142
   18.595     1180
   18.610     1127
   18.625     1148
   18.640     1149
   18.655     1156
   18.670     1191
   18.685     1152
   18.700     1207
   18.715     1262
   18.730     1272
   18.745     1330
   18.760     1387
   18.775     1368
   18.790     1293
   18.805     1313
   18.820     1268
   18.835     1184
   18.850     1207
   18.865     1214
   18.880     1222
   18.895     1346
   18.910     1419
   18.925     1348
   18.940     1333
   18.955     1365
   18.970     1320
   18.985     1217
   19.000     1186
   19.015     1236
   19.030     1216
   19.045     1180
   19.060     1228
   19.075     1216
   19.090     1252
   19.105     1236
   19.120     1227
   19.135     1204
   19.150     1178
   19.165     1145
   19.180     1150
   19.195     1168
   19.210     1147
   19.225     1160
   19.240     1128
   19.255     1080
   19.270     1039
   19.285     1095
   19.300     1132
   19.315     1096
   19.330     1072
   19.345     1060
   19.360     1061
   19.375     1047
   19.390     1100
   19.405     1108
   19.420     1076
   19.435     1084
   19.450     1109
   19.465     1139
   19.480     1074
   19.495     1220
   19.510     1103
   19.525     1078
   19.540     1155
   19.555     1147
   19.570     1054
   19.585     1052
   19.600     1100
   19.615     1031
   19.630     1068
   19.645     1070
   19.660     1049
   19.675     1095
   19.690     1102
   19.705     1110
   19.720     1138
   19.735     1121
   19.750     1078
   19.765     1054
   19.780     1037
   19.795     1029
   19.810     1050
   19.825     1056
   19.840     1021
   19.855     1023
   19.870     1045
   19.885     1074
   19.900     1100
   19.915     1088
   19.930     1022
   19.945     1000
   19.960     1054
   19.975     1053
   19.990     1011
   20.005     1032
   20.020     1065
   20.035     1090
   20.050     1071
   20.065     1050
   20.080     1048
   20.095     1084
   20.110     1099
   20.125     1027
   20.140      996
   20.155     1028
   20.170     1019
   20.185     1067
   20.200     1069
   20.215      985
   20.230     1082
   20.245     1072
   20.260     1032
   20.275      997
   20.290     1052
   20.305     1049
   20.320     1042
   20.335     1028
   20.350     1051
   20.365     1019
   20.380      983
   20.395      969
   20.410     1047
   20.425     1002
   20.440     1011
   20.455     1012
   20.470     1023
   20.485     1006
   20.500     1058
   20.515     1067
   20.530     1021
   20.545      992
   20.560     1019
   20.575     1002
   20.590     1027
   20.605     1040
   20.620     1015
   20.635      981
   20.650      989
   20.665      986
   20.680      998
   20.695      971
   20.710      993
   20.725      995
   20.740     1037
   20.755     1026
   20.770     1014
   20.785     1023
   20.800     1017
   20.815      992
   20.830     1018
   20.845     1058
   20.860      998
   20.875      998
   20.890      965
   20.905      986
   20.920     1017
   20.935     1005
   20.950     1022
   20.965     1039
   20.980     1118
   20.995     1169
   21.010     1276
   21.025     1254
   21.040     1198
   21.055     1178
   21.070     1152
   21.085     1146
